#Pb
#Energy	LinAtten
2.0004844E+00  1.3412E+04
2.0104868E+00  1.3272E+04
2.0205393E+00  1.3133E+04
2.0306420E+00  1.2996E+04
2.0407952E+00  1.2860E+04
2.0509992E+00  1.2726E+04
2.0612542E+00  1.2593E+04
2.0715604E+00  1.2462E+04
2.0819182E+00  1.2332E+04
2.0923278E+00  1.2204E+04
2.1027895E+00  1.2077E+04
2.1133034E+00  1.1951E+04
2.1238699E+00  1.1827E+04
2.1344893E+00  1.1705E+04
2.1451617E+00  1.1584E+04
2.1558875E+00  1.1464E+04
2.1666670E+00  1.1346E+04
2.1775003E+00  1.1228E+04
2.1883878E+00  1.1112E+04
2.1993297E+00  1.0998E+04
2.2103264E+00  1.0885E+04
2.2213780E+00  1.0773E+04
2.2324849E+00  1.0662E+04
2.2436473E+00  1.0552E+04
2.2548656E+00  1.0444E+04
2.2661399E+00  1.0337E+04
2.2774706E+00  1.0231E+04
2.2888579E+00  1.0127E+04
2.3003022E+00  1.0023E+04
2.3118037E+00  9.9205E+03
2.3233628E+00  9.8194E+03
2.3349796E+00  9.7192E+03
2.3466545E+00  9.6203E+03
2.3583878E+00  9.5224E+03
2.3701797E+00  9.4255E+03
2.3820306E+00  9.3298E+03
2.3939407E+00  9.2351E+03
2.4059104E+00  9.1415E+03
2.4179400E+00  9.0488E+03
2.4300297E+00  8.9573E+03
2.4421798E+00  8.8667E+03
2.4543907E+00  8.7771E+03
2.4666627E+00  8.6885E+03
2.4789960E+00  8.6009E+03
2.4833243E+00  8.5705E+03
2.4846756E+00  2.4292E+04
2.4913910E+00  2.4131E+04
2.5038479E+00  2.3837E+04
2.5163672E+00  2.3546E+04
2.5289490E+00  2.3259E+04
2.5415938E+00  2.2976E+04
2.5543017E+00  2.2696E+04
2.5670732E+00  2.2421E+04
2.5799086E+00  2.2148E+04
2.5848604E+00  2.2044E+04
2.5863394E+00  3.2041E+04
2.5928082E+00  3.1841E+04
2.6057722E+00  3.1441E+04
2.6188011E+00  3.1046E+04
2.6318951E+00  3.0657E+04
2.6450545E+00  3.0271E+04
2.6582798E+00  2.9892E+04
2.6715712E+00  2.9518E+04
2.6849291E+00  2.9148E+04
2.6983537E+00  2.8782E+04
2.7118455E+00  2.8420E+04
2.7254047E+00  2.8063E+04
2.7390317E+00  2.7710E+04
2.7527269E+00  2.7362E+04
2.7664905E+00  2.7019E+04
2.7803230E+00  2.6680E+04
2.7942246E+00  2.6346E+04
2.8081957E+00  2.6016E+04
2.8222367E+00  2.5690E+04
2.8363479E+00  2.5368E+04
2.8505296E+00  2.5049E+04
2.8647823E+00  2.4737E+04
2.8791062E+00  2.4427E+04
2.8935017E+00  2.4122E+04
2.9079692E+00  2.3820E+04
2.9225091E+00  2.3522E+04
2.9371216E+00  2.3229E+04
2.9518072E+00  2.2939E+04
2.9665662E+00  2.2652E+04
2.9813991E+00  2.2370E+04
2.9963061E+00  2.2091E+04
3.0112876E+00  2.1803E+04
3.0263440E+00  2.1515E+04
3.0414758E+00  2.1231E+04
3.0566831E+00  2.0950E+04
3.0632417E+00  2.0830E+04
3.0695584E+00  2.4331E+04
3.0719666E+00  2.4279E+04
3.0873264E+00  2.3949E+04
3.1027630E+00  2.3625E+04
3.1182768E+00  2.3305E+04
3.1338682E+00  2.2989E+04
3.1495376E+00  2.2676E+04
3.1652853E+00  2.2369E+04
3.1811117E+00  2.2065E+04
3.1970172E+00  2.1766E+04
3.2130023E+00  2.1470E+04
3.2290673E+00  2.1189E+04
3.2452127E+00  2.0912E+04
3.2614387E+00  2.0638E+04
3.2777459E+00  2.0369E+04
3.2941347E+00  2.0104E+04
3.3106053E+00  1.9843E+04
3.3271584E+00  1.9587E+04
3.3437941E+00  1.9335E+04
3.3605131E+00  1.9087E+04
3.3773157E+00  1.8840E+04
3.3942023E+00  1.8596E+04
3.4111733E+00  1.8356E+04
3.4282291E+00  1.8120E+04
3.4453703E+00  1.7887E+04
3.4625971E+00  1.7658E+04
3.4799101E+00  1.7432E+04
3.4973097E+00  1.7210E+04
3.5147962E+00  1.6990E+04
3.5323702E+00  1.6774E+04
3.5490108E+00  1.6574E+04
3.5500321E+00  1.6561E+04
3.5593891E+00  1.7605E+04
3.5677822E+00  1.7497E+04
3.5856211E+00  1.7270E+04
3.6035492E+00  1.7046E+04
3.6215670E+00  1.6826E+04
3.6396748E+00  1.6610E+04
3.6578732E+00  1.6396E+04
3.6761626E+00  1.6185E+04
3.6945434E+00  1.5976E+04
3.7130161E+00  1.5771E+04
3.7315812E+00  1.5570E+04
3.7502391E+00  1.5377E+04
3.7689903E+00  1.5187E+04
3.7878352E+00  1.4999E+04
3.8067744E+00  1.4814E+04
3.8258083E+00  1.4633E+04
3.8424209E+00  1.4476E+04
3.8449373E+00  1.4453E+04
3.8589789E+00  1.4954E+04
3.8641620E+00  1.4907E+04
3.8834828E+00  1.4729E+04
3.9029002E+00  1.4553E+04
3.9224147E+00  1.4381E+04
3.9420268E+00  1.4210E+04
3.9617369E+00  1.4042E+04
3.9815456E+00  1.3877E+04
4.0014533E+00  1.3710E+04
4.0214606E+00  1.3546E+04
4.0415679E+00  1.3384E+04
4.0617757E+00  1.3223E+04
4.0820846E+00  1.3065E+04
4.1024950E+00  1.2909E+04
4.1230075E+00  1.2755E+04
4.1436226E+00  1.2602E+04
4.1643407E+00  1.2453E+04
4.1851624E+00  1.2304E+04
4.2060882E+00  1.2158E+04
4.2271186E+00  1.2013E+04
4.2482542E+00  1.1870E+04
4.2694955E+00  1.1730E+04
4.2908430E+00  1.1592E+04
4.3122972E+00  1.1453E+04
4.3338587E+00  1.1318E+04
4.3555280E+00  1.1185E+04
4.3773056E+00  1.1053E+04
4.3991921E+00  1.0922E+04
4.4211881E+00  1.0793E+04
4.4432940E+00  1.0666E+04
4.4655105E+00  1.0541E+04
4.4878381E+00  1.0416E+04
4.5102772E+00  1.0294E+04
4.5328286E+00  1.0173E+04
4.5554928E+00  1.0053E+04
4.5782702E+00  9.9352E+03
4.6011616E+00  9.8185E+03
4.6241674E+00  9.7029E+03
4.6472882E+00  9.5872E+03
4.6705247E+00  9.4730E+03
4.6938773E+00  9.3601E+03
4.7173467E+00  9.2486E+03
4.7409334E+00  9.1384E+03
4.7646381E+00  9.0296E+03
4.7884613E+00  8.9219E+03
4.8124036E+00  8.8158E+03
4.8364656E+00  8.7107E+03
4.8606479E+00  8.6069E+03
4.8849512E+00  8.5045E+03
4.9093759E+00  8.4032E+03
4.9339228E+00  8.3033E+03
4.9585924E+00  8.2045E+03
4.9833854E+00  8.1049E+03
5.0083023E+00  8.0053E+03
5.0333438E+00  7.9068E+03
5.0585105E+00  7.8094E+03
5.0838031E+00  7.7134E+03
5.1092221E+00  7.6185E+03
5.1347682E+00  7.5249E+03
5.1604421E+00  7.4325E+03
5.1862443E+00  7.3400E+03
5.2121755E+00  7.2481E+03
5.2382364E+00  7.1574E+03
5.2644276E+00  7.0679E+03
5.2907497E+00  6.9795E+03
5.3172034E+00  6.8923E+03
5.3437895E+00  6.8062E+03
5.3705084E+00  6.7212E+03
5.3973609E+00  6.6373E+03
5.4243477E+00  6.5546E+03
5.4514695E+00  6.4729E+03
5.4787268E+00  6.3923E+03
5.5061205E+00  6.3127E+03
5.5336511E+00  6.2342E+03
5.5613193E+00  6.1567E+03
5.5891259E+00  6.0804E+03
5.6170716E+00  6.0049E+03
5.6451569E+00  5.9303E+03
5.6733827E+00  5.8569E+03
5.7017496E+00  5.7844E+03
5.7302584E+00  5.7128E+03
5.7589096E+00  5.6422E+03
5.7877042E+00  5.5724E+03
5.8166427E+00  5.5037E+03
5.8457259E+00  5.4358E+03
5.8749546E+00  5.3688E+03
5.9043293E+00  5.3027E+03
5.9338510E+00  5.2375E+03
5.9635202E+00  5.1731E+03
5.9933378E+00  5.1096E+03
6.0233045E+00  5.0468E+03
6.0534210E+00  4.9850E+03
6.0836882E+00  4.9240E+03
6.1141066E+00  4.8637E+03
6.1446771E+00  4.8039E+03
6.1754005E+00  4.7443E+03
6.2062775E+00  4.6856E+03
6.2373089E+00  4.6276E+03
6.2684954E+00  4.5704E+03
6.2998379E+00  4.5139E+03
6.3313371E+00  4.4582E+03
6.3629938E+00  4.4032E+03
6.3948088E+00  4.3489E+03
6.4267828E+00  4.2954E+03
6.4589167E+00  4.2425E+03
6.4912113E+00  4.1904E+03
6.5236674E+00  4.1390E+03
6.5562857E+00  4.0881E+03
6.5890671E+00  4.0380E+03
6.6220125E+00  3.9886E+03
6.6551225E+00  3.9398E+03
6.6883981E+00  3.8916E+03
6.7218401E+00  3.8440E+03
6.7554493E+00  3.7971E+03
6.7892266E+00  3.7508E+03
6.8231727E+00  3.7051E+03
6.8572886E+00  3.6600E+03
6.8915750E+00  3.6155E+03
6.9260329E+00  3.5717E+03
6.9606631E+00  3.5283E+03
6.9954664E+00  3.4856E+03
7.0304437E+00  3.4433E+03
7.0655959E+00  3.4016E+03
7.1009239E+00  3.3605E+03
7.1364285E+00  3.3197E+03
7.1721107E+00  3.2792E+03
7.2079712E+00  3.2394E+03
7.2440111E+00  3.2000E+03
7.2802311E+00  3.1612E+03
7.3166323E+00  3.1228E+03
7.3532155E+00  3.0849E+03
7.3899815E+00  3.0475E+03
7.4269314E+00  3.0107E+03
7.4640661E+00  2.9744E+03
7.5013864E+00  2.9383E+03
7.5388934E+00  2.9029E+03
7.5765878E+00  2.8678E+03
7.6144708E+00  2.8333E+03
7.6525431E+00  2.7992E+03
7.6908058E+00  2.7655E+03
7.7292599E+00  2.7322E+03
7.7679062E+00  2.6991E+03
7.8067457E+00  2.6664E+03
7.8457794E+00  2.6341E+03
7.8850083E+00  2.6023E+03
7.9244334E+00  2.5708E+03
7.9640555E+00  2.5397E+03
8.0038758E+00  2.5090E+03
8.0438952E+00  2.4788E+03
8.0841147E+00  2.4489E+03
8.1245352E+00  2.4194E+03
8.1651579E+00  2.3903E+03
8.2059837E+00  2.3615E+03
8.2470136E+00  2.3330E+03
8.2882487E+00  2.3049E+03
8.3296899E+00  2.2771E+03
8.3713384E+00  2.2497E+03
8.4131951E+00  2.2226E+03
8.4552610E+00  2.1960E+03
8.4975373E+00  2.1696E+03
8.5400250E+00  2.1435E+03
9.030794E+00  1.8680E+03
9.653919E+00  1.5698E+03
1.032004E+01  1.3218E+03
1.103212E+01  1.1139E+03
1.179334E+01  9.3789E+02
1.260708E+01  7.9088E+02
1.277450E+01  7.6483E+02
1.297002E+01  7.3600E+02
1.302216E+01  7.2859E+02
1.310038E+01  1.7958E+03
1.329590E+01  1.7268E+03
1.347697E+01  1.6657E+03
1.440688E+01  1.3928E+03
1.489600E+01  1.2730E+03
1.512400E+01  1.2221E+03
1.518480E+01  1.2089E+03
1.527600E+01  1.6583E+03
1.540095E+01  1.6227E+03
1.550400E+01  1.5940E+03
1.554358E+01  1.5833E+03
1.578150E+01  1.5203E+03
1.584494E+01  1.5039E+03
1.594010E+01  1.7091E+03
1.617802E+01  1.6466E+03
1.646362E+01  1.5758E+03
1.759961E+01  1.3300E+03
1.881398E+01  1.1217E+03
2.011215E+01  9.4620E+02
2.149988E+01  7.9768E+02
2.298338E+01  6.7275E+02
2.456923E+01  5.6781E+02
2.626450E+01  4.7958E+02
2.807676E+01  4.0220E+02
3.001405E+01  3.3701E+02
3.208502E+01  2.8220E+02
3.429889E+01  2.3597E+02
3.666551E+01  1.9754E+02
3.919543E+01  1.6559E+02
4.189992E+01  1.3896E+02
4.479101E+01  1.1677E+02
4.788159E+01  9.8248E+01
5.118542E+01  8.2776E+01
5.471721E+01  6.9836E+01
5.849270E+01  5.8933E+01
6.252870E+01  4.9765E+01
6.684318E+01  4.2080E+01
7.145536E+01  3.5540E+01
7.638578E+01  3.0037E+01
8.165640E+01  2.5376E+01
8.624441E+01  2.2049E+01
8.729069E+01  2.1382E+01
8.756448E+01  2.1211E+01
8.791650E+01  2.0997E+01
8.844452E+01  8.4618E+01
8.976459E+01  8.1544E+01
9.331374E+01  7.4000E+01
9.975239E+01  6.2584E+01
1.066353E+02  5.2873E+01
1.139931E+02  4.4672E+01
1.218587E+02  3.7762E+01
1.302669E+02  3.1906E+01
1.392553E+02  2.6969E+01
1.488640E+02  2.2819E+01
1.591356E+02  1.9332E+01
1.701159E+02  1.6404E+01
1.818539E+02  1.3944E+01
1.944018E+02  1.1869E+01
2.078156E+02  1.0125E+01
2.221548E+02  8.6579E+00
2.374835E+02  7.4233E+00
2.538699E+02  6.3832E+00
2.713869E+02  5.5064E+00
2.901126E+02  4.7663E+00
3.101304E+02  4.1409E+00
3.315294E+02  3.6117E+00
3.544049E+02  3.1633E+00
3.788588E+02  2.7826E+00
4.050001E+02  2.4588E+00
4.329451E+02  2.1827E+00
